
Frequency	dB	Unweighted
20.000000	81.834	59.4182
20.299999	81.906	58.6974
20.600000	81.976	57.9844
20.900000	82.042	57.2831
21.200001	82.105	56.5990
21.400000	82.145	56.1543
21.799999	82.224	55.2917
22.000000	82.263	54.8719
22.400000	82.340	54.0477
22.700001	82.397	53.4368
23.000000	82.453	52.8283
23.299999	82.506	52.2232
23.600000	82.557	51.6242
24.000000	82.621	50.8409
24.299999	82.667	50.2683
24.700001	82.727	49.5247
25.000000	82.770	48.9799
25.400000	82.827	48.2667
25.799999	82.882	47.5653
26.200001	82.936	46.8744
26.500000	82.975	46.3627
26.900000	83.026	45.6886
27.200001	83.064	45.1885
27.600000	83.112	44.5284
28.000000	83.159	43.8763
28.500000	83.214	43.0739
29.000000	83.267	42.2874
29.500000	83.318	41.5173
30.000000	83.365	40.7640
30.400000	83.402	40.1741
30.700001	83.429	39.7394
31.100000	83.463	39.1699
31.500000	83.497	38.6109
32.000000	83.538	37.9247
32.500000	83.577	37.2501
33.000000	83.614	36.5864
33.500000	83.650	35.9342
34.000000	83.684	35.2945
34.500000	83.716	34.6675
35.000000	83.746	34.0521
35.500000	83.775	33.4467
36.000000	83.803	32.8507
36.500000	83.829	32.2657
37.000000	83.853	31.6933
37.500000	83.876	31.1344
38.200001	83.907	30.3710
38.700001	83.928	29.8361
39.500000	83.961	28.9948
40.000000	83.979	28.4784
40.599998	84.001	27.8694
41.200001	84.020	27.2728
41.799999	84.038	26.6887
42.500000	84.058	26.0234
43.099998	84.073	25.4665
43.700001	84.088	24.9213
44.400002	84.103	24.2993
45.000000	84.116	23.7778
45.500000	84.126	23.3505
46.200001	84.138	22.7621
46.799999	84.148	22.2673
47.500000	84.158	21.7023
48.200001	84.167	21.1492
48.700001	84.173	20.7604
49.400002	84.180	20.2255
50.000000	84.186	19.7771
50.799999	84.193	19.1921
51.500000	84.198	18.6886
52.200001	84.202	18.1933
53.000000	84.205	17.6418
53.799999	84.208	17.1058
54.500000	84.209	16.6470
55.200001	84.210	16.1968
56.000000	84.210	15.6937
57.000000	84.209	15.0814
58.000000	84.206	14.4859
59.000000	84.204	13.9062
60.000000	84.200	13.3406
60.799999	84.197	12.8974
61.500000	84.194	12.5167
62.200001	84.190	12.1431
63.000000	84.185	11.7252
64.000000	84.178	11.2172
65.000000	84.170	10.7239
66.000000	84.162	10.2426
67.000000	84.153	9.7716
68.000000	84.143	9.3115
69.000000	84.133	8.8619
70.000000	84.123	8.4222
71.000000	84.113	7.9929
72.000000	84.102	7.5751
73.000000	84.090	7.1689
74.000000	84.078	6.7733
75.000000	84.066	6.3878
76.199997	84.051	5.9366
77.500000	84.034	5.4594
78.800003	84.016	4.9937
80.000000	83.999	4.5764
81.199997	83.984	4.1692
82.500000	83.967	3.7347
83.800003	83.949	3.3096
85.000000	83.932	2.9277
86.199997	83.915	2.5560
87.500000	83.894	2.1644
88.500000	83.878	1.8705
90.000000	83.854	1.4398
91.199997	83.834	1.1034
92.500000	83.812	0.7474
93.800003	83.790	0.4014
95.000000	83.768	0.0912
96.199997	83.746	-0.2102
97.500000	83.722	-0.5268
98.800003	83.696	-0.8329
100.000000	83.672	-1.1051
101.500000	83.641	-1.4306
103.000000	83.609	-1.7374
104.400002	83.578	-2.0048
106.000000	83.542	-2.2853
107.500000	83.508	-2.5219
109.000000	83.475	-2.7315
110.599998	83.441	-2.9260
112.000000	83.413	-3.0728
113.800003	83.379	-3.2290
115.000000	83.357	-3.3111
117.199997	83.324	-3.4125
118.000000	83.315	-3.4343
120.599998	83.298	-3.4692
122.000000	83.298	-3.4807
124.099998	83.309	-3.5128
125.000000	83.318	-3.5369
126.500000	83.337	-3.5969
128.000000	83.362	-3.6882
131.500000	83.440	-4.0842
132.000000	83.452	-4.1686
134.000000	83.501	-4.5873
136.000000	83.540	-5.1246
138.000000	83.564	-5.7421
140.000000	83.569	-6.3868
143.000000	83.551	-7.3110
145.000000	83.526	-7.8667
147.500000	83.488	-8.4872
150.000000	83.447	-9.0370
152.500000	83.405	-9.5313
155.000000	83.364	-9.9830
157.500000	83.324	-10.4017
160.000000	83.285	-10.7950
162.500000	83.247	-11.1689
165.000000	83.211	-11.5269
167.500000	83.175	-11.8715
170.000000	83.140	-12.2048
172.500000	83.105	-12.5284
175.000000	83.072	-12.8432
177.500000	83.039	-13.1497
180.000000	83.006	-13.4487
182.500000	82.974	-13.7409
185.000000	82.943	-14.0268
187.500000	82.912	-14.3066
190.000000	82.881	-14.5810
192.500000	82.851	-14.8506
195.000000	82.821	-15.1157
197.500000	82.791	-15.3773
200.000000	82.762	-15.6364
203.000000	82.728	-15.9448
206.000000	82.693	-16.2502
209.000000	82.658	-16.5522
212.000000	82.623	-16.8506
214.000000	82.600	-17.0471
218.000000	82.553	-17.4330
220.000000	82.529	-17.6226
224.000000	82.481	-17.9957
227.000000	82.445	-18.2704
230.000000	82.409	-18.5400
233.000000	82.373	-18.8043
236.000000	82.336	-19.0635
240.000000	82.286	-19.4008
243.000000	82.249	-19.6473
247.000000	82.198	-19.9667
250.000000	82.160	-20.1987
254.000000	82.108	-20.4976
258.000000	82.055	-20.7837
262.000000	82.001	-21.0544
265.000000	81.960	-21.2452
269.000000	81.905	-21.4811
272.000000	81.863	-21.6426
276.000000	81.807	-21.8354
280.000000	81.751	-22.0000
285.000000	81.681	-22.1628
290.000000	81.614	-22.2741
295.000000	81.550	-22.3276
300.000000	81.492	-22.3132
304.000000	81.452	-22.2473
307.000000	81.428	-22.1661
311.000000	81.407	-22.0235
315.000000	81.402	-21.8638
320.000000	81.423	-21.7058
325.000000	81.469	-21.6918
330.000000	81.527	-21.8966
335.000000	81.579	-22.3224
340.000000	81.612	-22.9062
345.000000	81.621	-23.5623
350.000000	81.609	-24.2222
355.000000	81.582	-24.8472
360.000000	81.544	-25.4219
365.000000	81.498	-25.9438
370.000000	81.449	-26.4177
375.000000	81.397	-26.8492
382.000000	81.322	-27.3925
387.000000	81.268	-27.7429
395.000000	81.183	-28.2498
400.000000	81.131	-28.5387
406.000000	81.070	-28.8618
412.000000	81.010	-29.1623
418.000000	80.951	-29.4433
425.000000	80.884	-29.7502
431.000000	80.827	-29.9983
437.000000	80.772	-30.2343
444.000000	80.709	-30.4953
450.000000	80.657	-30.7073
455.000000	80.614	-30.8761
462.000000	80.555	-31.1013
468.000000	80.505	-31.2849
475.000000	80.448	-31.4888
482.000000	80.393	-31.6818
487.000000	80.354	-31.8132
494.000000	80.300	-31.9883
500.000000	80.255	-32.1306
508.000000	80.195	-32.3094
515.000000	80.144	-32.4559
522.000000	80.094	-32.5931
530.000000	80.038	-32.7390
538.000000	79.983	-32.8734
545.000000	79.936	-32.9814
552.000000	79.891	-33.0798
560.000000	79.839	-33.1806
570.000000	79.778	-33.2899
580.000000	79.718	-33.3805
590.000000	79.659	-33.4539
600.000000	79.603	-33.5115
608.000000	79.560	-33.5461
615.000000	79.523	-33.5680
622.000000	79.487	-33.5817
630.000000	79.447	-33.5873
640.000000	79.399	-33.5793
650.000000	79.354	-33.5549
660.000000	79.311	-33.5147
670.000000	79.270	-33.4592
680.000000	79.231	-33.3892
690.000000	79.195	-33.3047
700.000000	79.162	-33.2061
710.000000	79.131	-33.0940
720.000000	79.103	-32.9688
730.000000	79.077	-32.8307
740.000000	79.054	-32.6802
750.000000	79.034	-32.5182
762.000000	79.014	-32.3088
775.000000	78.997	-32.0646
788.000000	78.985	-31.8038
800.000000	78.978	-31.5493
812.000000	78.976	-31.2827
825.000000	78.979	-30.9827
838.000000	78.988	-30.6728
850.000000	79.000	-30.3792
862.000000	79.018	-30.0795
875.000000	79.041	-29.7502
885.000000	79.063	-29.4948
900.000000	79.102	-29.1102
912.000000	79.138	-28.8038
925.000000	79.182	-28.4752
938.000000	79.231	-28.1520
950.000000	79.281	-27.8595
962.000000	79.335	-27.5738
975.000000	79.398	-27.2727
988.000000	79.465	-26.9821
1000.000000	79.531	-26.7245
1015.000000	79.618	-26.4191
1030.000000	79.709	-26.1333
1044.000000	79.798	-25.8859
1060.000000	79.904	-25.6268
1075.000000	80.007	-25.4067
1090.000000	80.112	-25.2078
1106.000000	80.227	-25.0181
1120.000000	80.330	-24.8707
1138.000000	80.463	-24.7067
1150.000000	80.554	-24.6124
1172.000000	80.721	-24.4672
1180.000000	80.782	-24.4220
1206.000000	80.982	-24.2960
1220.000000	81.089	-24.2376
1241.000000	81.252	-24.1567
1250.000000	81.322	-24.1229
1265.000000	81.439	-24.0647
1280.000000	81.557	-24.0000
1315.000000	81.842	-23.7961
1320.000000	81.885	-23.7600
1340.000000	82.066	-23.6088
1360.000000	82.264	-23.4860
1380.000000	82.476	-23.4542
1400.000000	82.692	-23.5510
1430.000000	83.006	-23.9011
1450.000000	83.205	-24.2085
1475.000000	83.447	-24.6221
1500.000000	83.687	-25.0591
1525.000000	83.927	-25.5311
1550.000000	84.167	-26.0472
1575.000000	84.407	-26.6132
1600.000000	84.647	-27.2328
1625.000000	84.885	-27.9082
1650.000000	85.123	-28.6437
1675.000000	85.362	-29.4543
1700.000000	85.601	-30.3754
1725.000000	85.836	-31.4582
1750.000000	86.055	-32.7411
1775.000000	86.239	-34.2065
1800.000000	86.373	-35.7369
1825.000000	86.459	-37.1309
1850.000000	86.530	-38.2756
1875.000000	86.613	-39.2831
1900.000000	86.710	-40.3445
1925.000000	86.805	-41.5447
1950.000000	86.883	-42.8573
1975.000000	86.937	-44.2177
2000.000000	86.966	-45.5685
2030.000000	86.967	-47.1227
2060.000000	86.936	-48.5641
2090.000000	86.875	-49.8641
2120.000000	86.790	-51.0029
2140.000000	86.720	-51.6641
2180.000000	86.557	-52.7291
2200.000000	86.466	-53.1223
2240.000000	86.278	-53.6110
2270.000000	86.144	-53.7295
2300.000000	86.032	-53.6949
2330.000000	85.945	-53.6039
2360.000000	85.881	-53.5563
2400.000000	85.808	-53.6454
2430.000000	85.745	-53.7955
2470.000000	85.637	-53.9796
2500.000000	85.541	-54.0286
2540.000000	85.402	-53.9188
2580.000000	85.260	-53.5862
2620.000000	85.124	-53.0080
2650.000000	85.036	-52.4125
2690.000000	84.950	-51.4842
2720.000000	84.910	-50.7831
2760.000000	84.877	-49.9249
2800.000000	84.857	-49.1459
2850.000000	84.849	-48.2524
2900.000000	84.857	-47.4819
2950.000000	84.866	-46.8387
3000.000000	84.864	-46.2349
3040.000000	84.855	-45.7113
3070.000000	84.847	-45.2761
3110.000000	84.839	-44.6342
3150.000000	84.834	-43.9250
3200.000000	84.837	-42.9544
3250.000000	84.850	-41.9075
3300.000000	84.874	-40.8038
3350.000000	84.909	-39.6544
3400.000000	84.954	-38.4581
3450.000000	85.011	-37.2130
3500.000000	85.081	-35.9255
3550.000000	85.166	-34.6085
3600.000000	85.270	-33.2828
3650.000000	85.395	-31.9914
3700.000000	85.539	-30.7988
3750.000000	85.693	-29.7650
3820.000000	85.900	-28.6172
3870.000000	86.024	-27.9465
3950.000000	86.165	-26.8649
4000.000000	86.227	-26.0153
4060.000000	86.299	-24.6776
4120.000000	86.408	-22.9758
4180.000000	86.591	-21.0667
4250.000000	86.914	-18.9617
4310.000000	87.257	-17.5818
4370.000000	87.615	-16.7551
4440.000000	87.991	-16.4549
4500.000000	88.244	-16.5759
4550.000000	88.400	-16.7709
4620.000000	88.548	-16.9679
4680.000000	88.635	-16.9671
4750.000000	88.719	-16.7744
4820.000000	88.807	-16.4659
4870.000000	88.878	-16.2355
4940.000000	88.989	-15.9691
5000.000000	89.091	-15.8357
5080.000000	89.229	-15.8339
5150.000000	89.342	-16.0044
5220.000000	89.439	-16.3174
5300.000000	89.525	-16.8093
5380.000000	89.581	-17.3995
5450.000000	89.605	-17.9672
5520.000000	89.603	-18.5606
5600.000000	89.568	-19.2416
5700.000000	89.469	-20.0225
5800.000000	89.309	-20.5822
5900.000000	89.102	-20.7730
6000.000000	88.872	-20.5308
6080.000000	88.689	-20.0421
6150.000000	88.539	-19.4347
6220.000000	88.402	-18.6981
6300.000000	88.267	-17.7488
6400.000000	88.131	-16.4827
6500.000000	88.033	-15.2165
6600.000000	87.966	-14.0288
6700.000000	87.927	-12.9877
6800.000000	87.906	-12.1523
6900.000000	87.892	-11.5668
7000.000000	87.871	-11.2474
7100.000000	87.830	-11.1737
7200.000000	87.757	-11.2899
7300.000000	87.644	-11.5219
7400.000000	87.488	-11.7912
7500.000000	87.285	-12.0117
7620.000000	86.984	-12.0780
7750.000000	86.599	-11.7394
7880.000000	86.178	-10.8479
8000.000000	85.787	-9.5026
8120.000000	85.420	-7.6980
8250.000000	85.079	-5.3353
8380.000000	84.822	-2.7205
8500.000000	84.676	-0.2830
8620.000000	84.624	1.9474
8750.000000	84.664	3.8300
8850.000000	84.746	4.6867
9000.000000	84.893	4.6667
9120.000000	84.961	3.3588
9250.000000	84.900	0.7292
9380.000000	84.623	-2.7147
9500.000000	84.137	-5.9624
9620.000000	83.427	-8.5964
9750.000000	82.436	-10.1483
9880.000000	81.276	-10.0126
10000.000000	80.121	-8.3657
10150.000000	78.647	-4.4830
10300.000000	77.221	1.0380
10440.000000	75.982	7.3116
10600.000000	74.707	15.4541
10750.000000	73.658	23.7721
10900.000000	72.751	32.5645
11060.000000	71.935	42.3181
11200.000000	71.345	51.0857
11380.000000	70.756	62.5963
11500.000000	70.475	70.3758
11720.000000	70.221	84.6414
11800.000000	70.219	89.7351
12060.000000	70.533	105.5556
12200.000000	70.908	113.4510
12410.000000	71.721	123.9283
12500.000000	72.136	127.7477
12650.000000	72.877	133.0975
12800.000000	73.644	137.1224
13150.000000	75.310	141.0929
13200.000000	75.511	141.0543
13400.000000	76.179	139.6455
13600.000000	76.617	136.7312
13800.000000	76.854	132.8663
14000.000000	76.940	128.1651
14300.000000	76.801	118.7369
14500.000000	76.418	110.5284
14750.000000	75.409	99.3739
15000.000000	73.701	90.1429
15250.000000	71.371	85.3049
15500.000000	68.630	85.2342
15750.000000	65.698	89.1263
16000.000000	62.741	96.0741
16250.000000	59.877	105.2595
16500.000000	57.177	116.0302
16750.000000	54.670	127.9242
17000.000000	52.356	140.5875
17250.000000	50.220	153.7079
17500.000000	48.225	167.0941
17750.000000	46.317	-179.2197
18000.000000	44.439	-164.9769
18250.000000	42.559	-149.8598
18500.000000	40.676	-133.5896
18750.000000	38.784	-115.6406
19000.000000	36.883	-95.0039
19250.000000	35.125	-71.0506
19500.000000	33.976	-45.6195
19750.000000	33.756	-23.8087
